
**************************************************************
 Geant4 version Name: geant4-10-04-patch-01 [MT]   (28-February-2018)
                       Copyright : Geant4 Collaboration
                      References : NIM A 506 (2003), 250-303
                                 : IEEE-TNS 53 (2006), 270-278
                                 : NIM A 835 (2016), 186-225
                             WWW : http://geant4.org/
**************************************************************

Using Root
Acrylic G4MaterialPropertiesTable
0: RINDEX
2.034e-06   1.48963
2.068e-06   1.49007
2.103e-06   1.49052
2.139e-06   1.491
2.177e-06   1.49151
2.216e-06   1.49205
2.256e-06   1.49261
2.298e-06   1.49321
2.341e-06   1.49384
2.386e-06   1.49451
2.433e-06   1.49523
2.481e-06   1.49598
2.532e-06   1.4968
2.585e-06   1.49767
2.64e-06   1.49859
2.697e-06   1.49958
2.757e-06   1.50064
2.82e-06   1.50178
2.885e-06   1.503
2.954e-06   1.50432
3.026e-06   1.50575
3.102e-06   1.5073
3.181e-06   1.50896
3.265e-06   1.51079
3.353e-06   1.51277
3.446e-06   1.51494
3.545e-06   1.51734
3.649e-06   1.51996
3.76e-06   1.52286
3.877e-06   1.52606
4.002e-06   1.52963
4.136e-06   1.53365
9: GROUPVEL
2.034e-06   197.781
2.051e-06   197.753
2.0855e-06   197.573
2.121e-06   197.384
2.158e-06   197.184
2.1965e-06   196.971
2.236e-06   196.749
2.277e-06   196.514
2.3195e-06   196.265
2.3635e-06   196.003
2.4095e-06   195.722
2.457e-06   195.426
2.5065e-06   195.111
2.5585e-06   194.772
2.6125e-06   194.412
2.6685e-06   194.03
2.727e-06   193.621
2.7885e-06   193.18
2.8525e-06   192.709
2.9195e-06   192.203
2.99e-06   191.656
3.064e-06   191.066
3.1415e-06   190.43
3.223e-06   189.74
3.309e-06   188.99
3.3995e-06   188.176
3.4955e-06   187.283
3.597e-06   186.306
3.7045e-06   185.234
3.8185e-06   184.054
3.9395e-06   182.754
4.136e-06   181.085
14: ABSLENGTH
2.034e-06   100
2.068e-06   100
2.103e-06   100
2.139e-06   100
2.177e-06   100
2.216e-06   100
2.256e-06   100
2.298e-06   100
2.341e-06   100
2.386e-06   100
2.433e-06   100
2.481e-06   100
2.532e-06   100
2.585e-06   100
2.64e-06   100
2.697e-06   100
2.757e-06   100
2.82e-06   100
2.885e-06   100
2.954e-06   100
3.026e-06   100
3.102e-06   100
3.181e-06   100
3.265e-06   100
3.353e-06   100
3.446e-06   100
3.545e-06   100
3.649e-06   100
3.76e-06   100
3.877e-06   100
4.002e-06   100
4.136e-06   100
Air G4MaterialPropertiesTable
0: RINDEX
2.034e-06   1
2.068e-06   1
2.103e-06   1
2.139e-06   1
2.177e-06   1
2.216e-06   1
2.256e-06   1
2.298e-06   1
2.341e-06   1
2.386e-06   1
2.433e-06   1
2.481e-06   1
2.532e-06   1
2.585e-06   1
2.64e-06   1
2.697e-06   1
2.757e-06   1
2.82e-06   1
2.885e-06   1
2.954e-06   1
3.026e-06   1
3.102e-06   1
3.181e-06   1
3.265e-06   1
3.353e-06   1
3.446e-06   1
3.545e-06   1
3.649e-06   1
3.76e-06   1
3.877e-06   1
4.002e-06   1
4.136e-06   1
9: GROUPVEL
2.034e-06   299.792
2.051e-06   299.792
2.0855e-06   299.792
2.121e-06   299.792
2.158e-06   299.792
2.1965e-06   299.792
2.236e-06   299.792
2.277e-06   299.792
2.3195e-06   299.792
2.3635e-06   299.792
2.4095e-06   299.792
2.457e-06   299.792
2.5065e-06   299.792
2.5585e-06   299.792
2.6125e-06   299.792
2.6685e-06   299.792
2.727e-06   299.792
2.7885e-06   299.792
2.8525e-06   299.792
2.9195e-06   299.792
2.99e-06   299.792
3.064e-06   299.792
3.1415e-06   299.792
3.223e-06   299.792
3.309e-06   299.792
3.3995e-06   299.792
3.4955e-06   299.792
3.597e-06   299.792
3.7045e-06   299.792
3.8185e-06   299.792
3.9395e-06   299.792
4.136e-06   299.792
14: ABSLENGTH
2.034e-06   100000
2.068e-06   100000
2.103e-06   100000
2.139e-06   100000
2.177e-06   100000
2.216e-06   100000
2.256e-06   100000
2.298e-06   100000
2.341e-06   100000
2.386e-06   100000
2.433e-06   100000
2.481e-06   100000
2.532e-06   100000
2.585e-06   100000
2.64e-06   100000
2.697e-06   100000
2.757e-06   100000
2.82e-06   100000
2.885e-06   100000
2.954e-06   100000
3.026e-06   100000
3.102e-06   100000
3.181e-06   100000
3.265e-06   100000
3.353e-06   100000
3.446e-06   100000
3.545e-06   100000
3.649e-06   100000
3.76e-06   100000
3.877e-06   100000
4.002e-06   100000
4.136e-06   100000
  Surface type   = 1
  Surface finish = 0
  Surface model  = 0

  Surface parameter 
  ----------------- 
1

Visualization Manager instantiating with verbosity "warnings (3)"...
Visualization Manager initialising...
Registering graphics systems...

You have successfully registered the following graphics systems.
Current available graphics systems are:
ASCIITree (ATree)
DAWNFILE (DAWNFILE)
G4HepRep (HepRepXML)
G4HepRepFile (HepRepFile)
RayTracer (RayTracer)
VRML1FILE (VRML1FILE)
VRML2FILE (VRML2FILE)
gMocrenFile (gMocrenFile)
OpenGLImmediateQt (OGLIQt, OGLI)
OpenGLStoredQt (OGLSQt, OGL, OGLS)
OpenGLImmediateX (OGLIX, OGLIQt_FALLBACK)
OpenGLStoredX (OGLSX, OGLSQt_FALLBACK)
RayTracerX (RayTracerX)

Registering model factories...

You have successfully registered the following model factories.
Registered model factories:
  generic
  drawByAttribute
  drawByCharge
  drawByOriginVolume
  drawByParticleID
  drawByEncounteredVolume

Registered filter factories:
  attributeFilter
  chargeFilter
  originVolumeFilter
  particleFilter
  encounteredVolumeFilter

You have successfully registered the following user vis actions.
Run Duration User Vis Actions: none
End of Event User Vis Actions: none
End of Run User Vis Actions: none

Some /vis commands (optionally) take a string to specify colour.
"/vis/list" to see available colours.
WARNING: G4VisCommandSceneHandlerCreate::SetNewValue:
  Using fallback graphics system: OpenGLImmediateX (OGLIX)
/tracking/storeTrajectory 1
Attributes available for modeling and filtering with
  "/vis/modeling/trajectories/create/drawByAttribute" and
  "/vis/filtering/trajectories/create/attributeFilter" commands:
G4TrajectoriesModel:
  Event ID (EventID): G4int
  Run ID (RunID): G4int
G4Trajectory:
  Charge (Ch): unit: e+ (G4double)
  Track ID (ID): G4int
  Initial kinetic energy (IKE): G4BestUnit (G4double)
  Initial momentum magnitude (IMag): G4BestUnit (G4double)
  Initial momentum (IMom): G4BestUnit (G4ThreeVector)
  No. of points (NTP): G4int
  PDG Encoding (PDG): G4int
  Parent ID (PID): G4int
  Particle Name (PN): G4String
G4TrajectoryPoint:
  Position (Pos): G4BestUnit (G4ThreeVector)
WARNING: Trajectory storing has been requested.  This action may be
  reversed with "/tracking/storeTrajectory 0".

msc:   for e-    SubType= 10
      RangeFactor= 0.04, stepLimitType: 1, latDisplacement: 1
      ===== EM models for the G4Region  DefaultRegionForTheWorld ======
            UrbanMsc :  Emin=        0 eV    Emax=      100 TeV  Table with 84 bins Emin=    100 eV    Emax=    100 TeV

eIoni:   for  e-    SubType= 2
      dE/dx and range tables from 100 eV  to 100 TeV in 84 bins
      Lambda tables from threshold to 100 TeV, 7 bins per decade, spline: 1
      finalRange(mm)= 1, dRoverRange= 0.2, integral: 1, fluct: 1, linLossLimit= 0.01
      ===== EM models for the G4Region  DefaultRegionForTheWorld ======
        MollerBhabha :  Emin=        0 eV    Emax=      100 TeV

msc:   for e+    SubType= 10
      RangeFactor= 0.04, stepLimitType: 1, latDisplacement: 1
      ===== EM models for the G4Region  DefaultRegionForTheWorld ======
            UrbanMsc :  Emin=        0 eV    Emax=      100 TeV  Table with 84 bins Emin=    100 eV    Emax=    100 TeV

eIoni:   for  e+    SubType= 2
      dE/dx and range tables from 100 eV  to 100 TeV in 84 bins
      Lambda tables from threshold to 100 TeV, 7 bins per decade, spline: 1
      finalRange(mm)= 1, dRoverRange= 0.2, integral: 1, fluct: 1, linLossLimit= 0.01
      ===== EM models for the G4Region  DefaultRegionForTheWorld ======
        MollerBhabha :  Emin=        0 eV    Emax=      100 TeV

annihil:   for  e+, integral: 1     SubType= 5  BuildTable= 0
      ===== EM models for the G4Region  DefaultRegionForTheWorld ======
            eplus2gg :  Emin=        0 eV    Emax=      100 TeV

ionIoni:   for  GenericIon    SubType= 2
      dE/dx and range tables from 100 eV  to 100 TeV in 84 bins
      Lambda tables from threshold to 100 TeV, 7 bins per decade, spline: 1
      finalRange(mm)= 0.1, dRoverRange= 0.2, integral: 1, fluct: 1, linLossLimit= 0.02
      Stopping Power data for 17 ion/material pairs 
      ===== EM models for the G4Region  DefaultRegionForTheWorld ======
            BraggIon :  Emin=        0 eV    Emax=        2 MeV
          BetheBloch :  Emin=        2 MeV   Emax=      100 TeV

msc:   for mu+    SubType= 10
      RangeFactor= 0.2, step limit type: 0, lateralDisplacement: 0, polarAngleLimit(deg)= 180
      ===== EM models for the G4Region  DefaultRegionForTheWorld ======
            UrbanMsc :  Emin=        0 eV    Emax=      100 TeV  Table with 84 bins Emin=    100 eV    Emax=    100 TeV

muIoni:   for  mu+    SubType= 2
      dE/dx and range tables from 100 eV  to 100 TeV in 84 bins
      Lambda tables from threshold to 100 TeV, 7 bins per decade, spline: 1
      finalRange(mm)= 0.1, dRoverRange= 0.2, integral: 1, fluct: 1, linLossLimit= 0.01
      ===== EM models for the G4Region  DefaultRegionForTheWorld ======
               Bragg :  Emin=        0 eV    Emax=      200 keV
          BetheBloch :  Emin=      200 keV   Emax=        1 GeV
        MuBetheBloch :  Emin=        1 GeV   Emax=      100 TeV

muPairProd:   for  mu+    SubType= 4
      dE/dx and range tables from 100 eV  to 100 TeV in 84 bins
      Lambda tables from threshold to 100 TeV, 7 bins per decade, spline: 1
      Sampling table 21x1001; from 1 GeV to 100 TeV 
      ===== EM models for the G4Region  DefaultRegionForTheWorld ======
          muPairProd :  Emin=        0 eV    Emax=      100 TeV

msc:   for mu-    SubType= 10
      RangeFactor= 0.2, step limit type: 0, lateralDisplacement: 0, polarAngleLimit(deg)= 180
      ===== EM models for the G4Region  DefaultRegionForTheWorld ======
            UrbanMsc :  Emin=        0 eV    Emax=      100 TeV  Table with 84 bins Emin=    100 eV    Emax=    100 TeV

muIoni:   for  mu-    SubType= 2
      dE/dx and range tables from 100 eV  to 100 TeV in 84 bins
      Lambda tables from threshold to 100 TeV, 7 bins per decade, spline: 1
      finalRange(mm)= 0.1, dRoverRange= 0.2, integral: 1, fluct: 1, linLossLimit= 0.01
      ===== EM models for the G4Region  DefaultRegionForTheWorld ======
            ICRU73QO :  Emin=        0 eV    Emax=      200 keV
          BetheBloch :  Emin=      200 keV   Emax=        1 GeV
        MuBetheBloch :  Emin=        1 GeV   Emax=      100 TeV

muPairProd:   for  mu-    SubType= 4
      dE/dx and range tables from 100 eV  to 100 TeV in 84 bins
      Lambda tables from threshold to 100 TeV, 7 bins per decade, spline: 1
      Sampling table 21x1001; from 1 GeV to 100 TeV 
      ===== EM models for the G4Region  DefaultRegionForTheWorld ======
          muPairProd :  Emin=        0 eV    Emax=      100 TeV
### Run 0 starts.
... open Root analysis file : KevinBuild.root - done
### Run 0 start.
--> Event 0 starts.
Resultant Planar wave  momentum vector (0.57735,0.57735,0.57735)
<<< Event  0 has started.

*********************************************************************************************************
* G4Track Information:   Particle = mu-,   Track ID = 1,   Parent ID = 0
*********************************************************************************************************

Step#    X(mm)    Y(mm)    Z(mm) KinE(MeV)  dE(MeV) StepLeng TrackLeng  NextVolume ProcName
    0   -3e+03   -3e+03   -3e+03       125        0        0         0       World initStep
    1 -2.95e+03 -2.95e+03 -2.95e+03       125   0.0128     92.4      92.4       World muIoni
92.3581654870043 this is the net distance traveled by the particle. 
    2 -2.95e+03 -2.95e+03 -2.95e+03       125 5.49e-05     1.39      93.7       World muIoni
1.390326212868735 this is the net distance traveled by the particle. 
    3 -2.93e+03 -2.93e+03 -2.93e+03       125  0.00456     27.6       121       World muIoni
27.57737903671893 this is the net distance traveled by the particle. 
    4 -2.89e+03 -2.89e+03 -2.89e+03       125   0.0107     60.8       182       World muIoni
60.82166210763517 this is the net distance traveled by the particle. 
    5 -2.85e+03 -2.85e+03 -2.85e+03       125   0.0141     83.1       265       World muIoni
83.11061236590373 this is the net distance traveled by the particle. 
    6 -2.77e+03 -2.77e+03 -2.77e+03       125   0.0205      128       393       World muIoni
128.1401385592625 this is the net distance traveled by the particle. 
    7 -2.76e+03 -2.76e+03 -2.76e+03       125  0.00364     29.4       423       World muIoni
29.40853600223575 this is the net distance traveled by the particle. 
    8 -2.64e+03 -2.64e+03 -2.64e+03       125   0.0375      205       628       World muIoni
204.9776175756341 this is the net distance traveled by the particle. 
    9 -2.63e+03 -2.63e+03 -2.63e+03       125   0.0028     19.1       647       World muIoni
19.09363580948296 this is the net distance traveled by the particle. 
   10 -2.56e+03 -2.56e+03 -2.56e+03       125   0.0187      111       757       World muIoni
110.5430733563501 this is the net distance traveled by the particle. 
   11 -2.49e+03 -2.49e+03 -2.49e+03       125   0.0187      123       880       World muIoni
122.656784685727 this is the net distance traveled by the particle. 
   12 -2.42e+03 -2.43e+03 -2.43e+03       125     0.02      114       994       World muIoni
114.171992417569 this is the net distance traveled by the particle. 
   13 -2.42e+03 -2.42e+03 -2.42e+03       125 0.000513     14.4  1.01e+03       World muIoni
14.35890804071176 this is the net distance traveled by the particle. 
   14 -2.38e+03 -2.38e+03 -2.39e+03       125  0.00823     58.2  1.07e+03       World muIoni
58.23295998201011 this is the net distance traveled by the particle. 
   15 -2.37e+03 -2.37e+03 -2.37e+03       125  0.00393       23  1.09e+03       World muIoni
23.03373516140681 this is the net distance traveled by the particle. 
   16 -2.35e+03 -2.35e+03 -2.35e+03       125   0.0042     37.2  1.13e+03       World muIoni
37.16197902917194 this is the net distance traveled by the particle. 
   17 -2.33e+03 -2.33e+03 -2.33e+03       125  0.00696     33.9  1.16e+03       World muIoni
33.89355840832455 this is the net distance traveled by the particle. 
   18 -2.22e+03 -2.22e+03 -2.23e+03       125   0.0281      185  1.35e+03       World muIoni
185.4852070618953 this is the net distance traveled by the particle. 
   19 -2.22e+03 -2.22e+03 -2.22e+03       125 0.000805     6.02  1.35e+03       World muIoni
6.019428199941209 this is the net distance traveled by the particle. 
   20 -2.18e+03 -2.18e+03 -2.18e+03       125   0.0124     67.6  1.42e+03       World muIoni
67.62816014848913 this is the net distance traveled by the particle. 
   21 -2.14e+03 -2.15e+03 -2.15e+03       125   0.0074     58.7  1.48e+03       World muIoni
58.65680393830083 this is the net distance traveled by the particle. 
   22 -2.14e+03 -2.14e+03 -2.14e+03       125  0.00165     11.4  1.49e+03       World muIoni
11.40079607878905 this is the net distance traveled by the particle. 
   23 -2.07e+03 -2.07e+03 -2.07e+03       125   0.0194      118  1.61e+03       World muIoni
118.1921508847331 this is the net distance traveled by the particle. 
   24 -2.04e+03 -2.05e+03 -2.05e+03       125  0.00655     42.7  1.65e+03       World muIoni
42.66083910608987 this is the net distance traveled by the particle. 
   25 -2.02e+03 -2.02e+03 -2.03e+03       125  0.00718     42.4  1.69e+03       World muIoni
42.41894578263986 this is the net distance traveled by the particle. 
   26 -1.85e+03 -1.86e+03 -1.86e+03       125    0.042      289  1.98e+03       World muIoni
288.516238816524 this is the net distance traveled by the particle. 
   27 -1.78e+03 -1.79e+03 -1.79e+03       125   0.0155      117   2.1e+03       World muIoni
117.3192311058618 this is the net distance traveled by the particle. 
   28 -1.75e+03 -1.75e+03 -1.75e+03       125   0.0116     66.3  2.17e+03       World muIoni
66.28127083027393 this is the net distance traveled by the particle. 
   29 -1.73e+03 -1.74e+03 -1.74e+03       125   0.0043     23.9  2.19e+03       World muIoni
23.91923604911974 this is the net distance traveled by the particle. 
   30 -1.73e+03 -1.73e+03 -1.74e+03       125 0.000335     2.27  2.19e+03       World muIoni
2.2743486340065 this is the net distance traveled by the particle. 
   31 -1.7e+03 -1.7e+03 -1.71e+03       125   0.0086     55.6  2.25e+03       World muIoni
55.61343676467475 this is the net distance traveled by the particle. 
   32 -1.68e+03 -1.69e+03 -1.69e+03       125  0.00253     24.3  2.27e+03       World muIoni
24.30661979785218 this is the net distance traveled by the particle. 
   33 -1.65e+03 -1.65e+03 -1.66e+03       125   0.0126     63.1  2.33e+03       World muIoni
63.07222293977527 this is the net distance traveled by the particle. 
   34 -1.64e+03 -1.65e+03 -1.65e+03       124 0.000436     7.64  2.34e+03       World muIoni
7.641961785236091 this is the net distance traveled by the particle. 
   35 -1.56e+03 -1.56e+03 -1.57e+03       124   0.0261      151  2.49e+03       World muIoni
151.2869689497133 this is the net distance traveled by the particle. 
   36 -1.49e+03 -1.5e+03 -1.51e+03       124   0.0228      104   2.6e+03       World muIoni
104.2763650089564 this is the net distance traveled by the particle. 
   37 -1.49e+03 -1.5e+03 -1.51e+03       124        0    0.174   2.6e+03       World muIoni
0.1744447743762613 this is the net distance traveled by the particle. 
   38 -1.44e+03 -1.45e+03 -1.46e+03       124    0.012     89.3  2.69e+03       World muIoni
89.29418515214533 this is the net distance traveled by the particle. 
   39 -1.38e+03 -1.38e+03 -1.39e+03       124   0.0205      114   2.8e+03       World muIoni
113.6913690292338 this is the net distance traveled by the particle. 
   40 -1.36e+03 -1.36e+03 -1.37e+03       124  0.00662     32.3  2.83e+03       World muIoni
32.26942925030427 this is the net distance traveled by the particle. 
   41 -1.32e+03 -1.33e+03 -1.34e+03       124  0.00878     57.9  2.89e+03       World muIoni
57.85557891574012 this is the net distance traveled by the particle. 
   42 -1.26e+03 -1.27e+03 -1.28e+03       124   0.0148      106     3e+03       World muIoni
105.5812434929709 this is the net distance traveled by the particle. 
   43 -1.16e+03 -1.17e+03 -1.18e+03       124   0.0299      175  3.17e+03       World muIoni
174.7157095042797 this is the net distance traveled by the particle. 
   44 -1.13e+03 -1.14e+03 -1.15e+03       124  0.00708     47.8  3.22e+03       World muIoni
47.80033671035296 this is the net distance traveled by the particle. 
   45 -1.1e+03 -1.11e+03 -1.13e+03       124  0.00677     43.3  3.26e+03       World muIoni
43.3461366683535 this is the net distance traveled by the particle. 
   46 -1.09e+03 -1.1e+03 -1.12e+03       124  0.00251     19.4  3.28e+03       World muIoni
19.37033545797224 this is the net distance traveled by the particle. 
   47 -1.01e+03 -1.02e+03 -1.03e+03       124   0.0248      146  3.43e+03       World muIoni
146.4777767260192 this is the net distance traveled by the particle. 
   48     -993   -1e+03 -1.02e+03       124  0.00354     25.9  3.45e+03       World muIoni
25.88163464346315 this is the net distance traveled by the particle. 
   49     -945     -957     -973       124   0.0127       82  3.54e+03       World muIoni
82.03154116510426 this is the net distance traveled by the particle. 
   50     -912     -925     -940       124    0.013     56.8  3.59e+03       World muIoni
56.77164184973073 this is the net distance traveled by the particle. 
   51     -877     -890     -906       124  0.00894     59.6  3.65e+03       World muIoni
59.64175752932121 this is the net distance traveled by the particle. 
   52     -847     -861     -877       124  0.00719     50.3   3.7e+03       World muIoni
