
**************************************************************
 Geant4 version Name: geant4-10-04-patch-01 [MT]   (28-February-2018)
                       Copyright : Geant4 Collaboration
                      References : NIM A 506 (2003), 250-303
                                 : IEEE-TNS 53 (2006), 270-278
                                 : NIM A 835 (2016), 186-225
                             WWW : http://geant4.org/
**************************************************************

Using Root
Acrylic G4MaterialPropertiesTable
0: RINDEX
2.034e-06   1.48963
2.068e-06   1.49007
2.103e-06   1.49052
2.139e-06   1.491
2.177e-06   1.49151
2.216e-06   1.49205
2.256e-06   1.49261
2.298e-06   1.49321
2.341e-06   1.49384
2.386e-06   1.49451
2.433e-06   1.49523
2.481e-06   1.49598
2.532e-06   1.4968
2.585e-06   1.49767
2.64e-06   1.49859
2.697e-06   1.49958
2.757e-06   1.50064
2.82e-06   1.50178
2.885e-06   1.503
2.954e-06   1.50432
3.026e-06   1.50575
3.102e-06   1.5073
3.181e-06   1.50896
3.265e-06   1.51079
3.353e-06   1.51277
3.446e-06   1.51494
3.545e-06   1.51734
3.649e-06   1.51996
3.76e-06   1.52286
3.877e-06   1.52606
4.002e-06   1.52963
4.136e-06   1.53365
9: GROUPVEL
2.034e-06   197.781
2.051e-06   197.753
2.0855e-06   197.573
2.121e-06   197.384
2.158e-06   197.184
2.1965e-06   196.971
2.236e-06   196.749
2.277e-06   196.514
2.3195e-06   196.265
2.3635e-06   196.003
2.4095e-06   195.722
2.457e-06   195.426
2.5065e-06   195.111
2.5585e-06   194.772
2.6125e-06   194.412
2.6685e-06   194.03
2.727e-06   193.621
2.7885e-06   193.18
2.8525e-06   192.709
2.9195e-06   192.203
2.99e-06   191.656
3.064e-06   191.066
3.1415e-06   190.43
3.223e-06   189.74
3.309e-06   188.99
3.3995e-06   188.176
3.4955e-06   187.283
3.597e-06   186.306
3.7045e-06   185.234
3.8185e-06   184.054
3.9395e-06   182.754
4.136e-06   181.085
14: ABSLENGTH
2.034e-06   100
2.068e-06   100
2.103e-06   100
2.139e-06   100
2.177e-06   100
2.216e-06   100
2.256e-06   100
2.298e-06   100
2.341e-06   100
2.386e-06   100
2.433e-06   100
2.481e-06   100
2.532e-06   100
2.585e-06   100
2.64e-06   100
2.697e-06   100
2.757e-06   100
2.82e-06   100
2.885e-06   100
2.954e-06   100
3.026e-06   100
3.102e-06   100
3.181e-06   100
3.265e-06   100
3.353e-06   100
3.446e-06   100
3.545e-06   100
3.649e-06   100
3.76e-06   100
3.877e-06   100
4.002e-06   100
4.136e-06   100
Air G4MaterialPropertiesTable
0: RINDEX
2.034e-06   1
2.068e-06   1
2.103e-06   1
2.139e-06   1
2.177e-06   1
2.216e-06   1
2.256e-06   1
2.298e-06   1
2.341e-06   1
2.386e-06   1
2.433e-06   1
2.481e-06   1
2.532e-06   1
2.585e-06   1
2.64e-06   1
2.697e-06   1
2.757e-06   1
2.82e-06   1
2.885e-06   1
2.954e-06   1
3.026e-06   1
3.102e-06   1
3.181e-06   1
3.265e-06   1
3.353e-06   1
3.446e-06   1
3.545e-06   1
3.649e-06   1
3.76e-06   1
3.877e-06   1
4.002e-06   1
4.136e-06   1
9: GROUPVEL
2.034e-06   299.792
2.051e-06   299.792
2.0855e-06   299.792
2.121e-06   299.792
2.158e-06   299.792
2.1965e-06   299.792
2.236e-06   299.792
2.277e-06   299.792
2.3195e-06   299.792
2.3635e-06   299.792
2.4095e-06   299.792
2.457e-06   299.792
2.5065e-06   299.792
2.5585e-06   299.792
2.6125e-06   299.792
2.6685e-06   299.792
2.727e-06   299.792
2.7885e-06   299.792
2.8525e-06   299.792
2.9195e-06   299.792
2.99e-06   299.792
3.064e-06   299.792
3.1415e-06   299.792
3.223e-06   299.792
3.309e-06   299.792
3.3995e-06   299.792
3.4955e-06   299.792
3.597e-06   299.792
3.7045e-06   299.792
3.8185e-06   299.792
3.9395e-06   299.792
4.136e-06   299.792
14: ABSLENGTH
2.034e-06   100000
2.068e-06   100000
2.103e-06   100000
2.139e-06   100000
2.177e-06   100000
2.216e-06   100000
2.256e-06   100000
2.298e-06   100000
2.341e-06   100000
2.386e-06   100000
2.433e-06   100000
2.481e-06   100000
2.532e-06   100000
2.585e-06   100000
2.64e-06   100000
2.697e-06   100000
2.757e-06   100000
2.82e-06   100000
2.885e-06   100000
2.954e-06   100000
3.026e-06   100000
3.102e-06   100000
3.181e-06   100000
3.265e-06   100000
3.353e-06   100000
3.446e-06   100000
3.545e-06   100000
3.649e-06   100000
3.76e-06   100000
3.877e-06   100000
4.002e-06   100000
4.136e-06   100000
  Surface type   = 1
  Surface finish = 0
  Surface model  = 0

  Surface parameter 
  ----------------- 
1

Visualization Manager instantiating with verbosity "warnings (3)"...
Visualization Manager initialising...
Registering graphics systems...

You have successfully registered the following graphics systems.
Current available graphics systems are:
ASCIITree (ATree)
DAWNFILE (DAWNFILE)
G4HepRep (HepRepXML)
G4HepRepFile (HepRepFile)
RayTracer (RayTracer)
VRML1FILE (VRML1FILE)
VRML2FILE (VRML2FILE)
gMocrenFile (gMocrenFile)
OpenGLImmediateQt (OGLIQt, OGLI)
OpenGLStoredQt (OGLSQt, OGL, OGLS)
OpenGLImmediateX (OGLIX, OGLIQt_FALLBACK)
OpenGLStoredX (OGLSX, OGLSQt_FALLBACK)
RayTracerX (RayTracerX)

Registering model factories...

You have successfully registered the following model factories.
Registered model factories:
  generic
  drawByAttribute
  drawByCharge
  drawByOriginVolume
  drawByParticleID
  drawByEncounteredVolume

Registered filter factories:
  attributeFilter
  chargeFilter
  originVolumeFilter
  particleFilter
  encounteredVolumeFilter

You have successfully registered the following user vis actions.
Run Duration User Vis Actions: none
End of Event User Vis Actions: none
End of Run User Vis Actions: none

Some /vis commands (optionally) take a string to specify colour.
"/vis/list" to see available colours.
WARNING: G4VisCommandSceneHandlerCreate::SetNewValue:
  Using fallback graphics system: OpenGLImmediateX (OGLIX)
/tracking/storeTrajectory 1
Attributes available for modeling and filtering with
  "/vis/modeling/trajectories/create/drawByAttribute" and
  "/vis/filtering/trajectories/create/attributeFilter" commands:
G4TrajectoriesModel:
  Event ID (EventID): G4int
  Run ID (RunID): G4int
G4Trajectory:
  Charge (Ch): unit: e+ (G4double)
  Track ID (ID): G4int
  Initial kinetic energy (IKE): G4BestUnit (G4double)
  Initial momentum magnitude (IMag): G4BestUnit (G4double)
  Initial momentum (IMom): G4BestUnit (G4ThreeVector)
  No. of points (NTP): G4int
  PDG Encoding (PDG): G4int
  Parent ID (PID): G4int
  Particle Name (PN): G4String
G4TrajectoryPoint:
  Position (Pos): G4BestUnit (G4ThreeVector)
WARNING: Trajectory storing has been requested.  This action may be
  reversed with "/tracking/storeTrajectory 0".

msc:   for e-    SubType= 10
      RangeFactor= 0.04, stepLimitType: 1, latDisplacement: 1
      ===== EM models for the G4Region  DefaultRegionForTheWorld ======
            UrbanMsc :  Emin=        0 eV    Emax=      100 TeV  Table with 84 bins Emin=    100 eV    Emax=    100 TeV

eIoni:   for  e-    SubType= 2
      dE/dx and range tables from 100 eV  to 100 TeV in 84 bins
      Lambda tables from threshold to 100 TeV, 7 bins per decade, spline: 1
      finalRange(mm)= 1, dRoverRange= 0.2, integral: 1, fluct: 1, linLossLimit= 0.01
      ===== EM models for the G4Region  DefaultRegionForTheWorld ======
        MollerBhabha :  Emin=        0 eV    Emax=      100 TeV

msc:   for e+    SubType= 10
      RangeFactor= 0.04, stepLimitType: 1, latDisplacement: 1
      ===== EM models for the G4Region  DefaultRegionForTheWorld ======
            UrbanMsc :  Emin=        0 eV    Emax=      100 TeV  Table with 84 bins Emin=    100 eV    Emax=    100 TeV

eIoni:   for  e+    SubType= 2
      dE/dx and range tables from 100 eV  to 100 TeV in 84 bins
      Lambda tables from threshold to 100 TeV, 7 bins per decade, spline: 1
      finalRange(mm)= 1, dRoverRange= 0.2, integral: 1, fluct: 1, linLossLimit= 0.01
      ===== EM models for the G4Region  DefaultRegionForTheWorld ======
        MollerBhabha :  Emin=        0 eV    Emax=      100 TeV

annihil:   for  e+, integral: 1     SubType= 5  BuildTable= 0
      ===== EM models for the G4Region  DefaultRegionForTheWorld ======
            eplus2gg :  Emin=        0 eV    Emax=      100 TeV

ionIoni:   for  GenericIon    SubType= 2
      dE/dx and range tables from 100 eV  to 100 TeV in 84 bins
      Lambda tables from threshold to 100 TeV, 7 bins per decade, spline: 1
      finalRange(mm)= 0.1, dRoverRange= 0.2, integral: 1, fluct: 1, linLossLimit= 0.02
      Stopping Power data for 17 ion/material pairs 
      ===== EM models for the G4Region  DefaultRegionForTheWorld ======
            BraggIon :  Emin=        0 eV    Emax=        2 MeV
          BetheBloch :  Emin=        2 MeV   Emax=      100 TeV

msc:   for mu+    SubType= 10
      RangeFactor= 0.2, step limit type: 0, lateralDisplacement: 0, polarAngleLimit(deg)= 180
      ===== EM models for the G4Region  DefaultRegionForTheWorld ======
            UrbanMsc :  Emin=        0 eV    Emax=      100 TeV  Table with 84 bins Emin=    100 eV    Emax=    100 TeV

muIoni:   for  mu+    SubType= 2
      dE/dx and range tables from 100 eV  to 100 TeV in 84 bins
      Lambda tables from threshold to 100 TeV, 7 bins per decade, spline: 1
      finalRange(mm)= 0.1, dRoverRange= 0.2, integral: 1, fluct: 1, linLossLimit= 0.01
      ===== EM models for the G4Region  DefaultRegionForTheWorld ======
               Bragg :  Emin=        0 eV    Emax=      200 keV
          BetheBloch :  Emin=      200 keV   Emax=        1 GeV
        MuBetheBloch :  Emin=        1 GeV   Emax=      100 TeV

muPairProd:   for  mu+    SubType= 4
      dE/dx and range tables from 100 eV  to 100 TeV in 84 bins
      Lambda tables from threshold to 100 TeV, 7 bins per decade, spline: 1
      Sampling table 21x1001; from 1 GeV to 100 TeV 
      ===== EM models for the G4Region  DefaultRegionForTheWorld ======
          muPairProd :  Emin=        0 eV    Emax=      100 TeV

msc:   for mu-    SubType= 10
      RangeFactor= 0.2, step limit type: 0, lateralDisplacement: 0, polarAngleLimit(deg)= 180
      ===== EM models for the G4Region  DefaultRegionForTheWorld ======
            UrbanMsc :  Emin=        0 eV    Emax=      100 TeV  Table with 84 bins Emin=    100 eV    Emax=    100 TeV

muIoni:   for  mu-    SubType= 2
      dE/dx and range tables from 100 eV  to 100 TeV in 84 bins
      Lambda tables from threshold to 100 TeV, 7 bins per decade, spline: 1
      finalRange(mm)= 0.1, dRoverRange= 0.2, integral: 1, fluct: 1, linLossLimit= 0.01
      ===== EM models for the G4Region  DefaultRegionForTheWorld ======
            ICRU73QO :  Emin=        0 eV    Emax=      200 keV
          BetheBloch :  Emin=      200 keV   Emax=        1 GeV
        MuBetheBloch :  Emin=        1 GeV   Emax=      100 TeV

muPairProd:   for  mu-    SubType= 4
      dE/dx and range tables from 100 eV  to 100 TeV in 84 bins
      Lambda tables from threshold to 100 TeV, 7 bins per decade, spline: 1
      Sampling table 21x1001; from 1 GeV to 100 TeV 
      ===== EM models for the G4Region  DefaultRegionForTheWorld ======
          muPairProd :  Emin=        0 eV    Emax=      100 TeV
### Run 0 starts.
... open Root analysis file : KevinBuild.root - done
### Run 0 start.
--> Event 0 starts.
Resultant Planar wave  momentum vector (0.57735,0.57735,0.57735)
<<< Event  0 has started.

*********************************************************************************************************
* G4Track Information:   Particle = mu-,   Track ID = 1,   Parent ID = 0
*********************************************************************************************************

Step#    X(mm)    Y(mm)    Z(mm) KinE(MeV)  dE(MeV) StepLeng TrackLeng  NextVolume ProcName
    0   -3e+03   -3e+03   -3e+03        50        0        0         0       World initStep
    1 -2.97e+03 -2.97e+03 -2.97e+03        50  0.00957     59.6      59.6       World muIoni
59.58873442251437 this is the net distance traveled by the particle. 
    2 -2.95e+03 -2.95e+03 -2.95e+03        50  0.00681     29.1      88.7       World muIoni
29.08715484838641 this is the net distance traveled by the particle. 
    3 -2.92e+03 -2.92e+03 -2.92e+03        50   0.0181     50.4       139       World muIoni
50.43820949862998 this is the net distance traveled by the particle. 
    4 -2.91e+03 -2.91e+03 -2.91e+03        50  0.00461     21.3       160       World muIoni
21.28435062966199 this is the net distance traveled by the particle. 
    5 -2.88e+03 -2.88e+03 -2.88e+03      49.9  0.00995     53.8       214       World muIoni
53.83559346938399 this is the net distance traveled by the particle. 
    6 -2.79e+03 -2.79e+03 -2.79e+03      49.9    0.033      149       364       World muIoni
149.3393288869537 this is the net distance traveled by the particle. 
    7 -2.79e+03 -2.79e+03 -2.79e+03      49.9  0.00109     5.73       369       World muIoni
5.729455983584371 this is the net distance traveled by the particle. 
    8 -2.75e+03 -2.75e+03 -2.75e+03      49.9    0.011     60.8       430       World muIoni
60.78805305328721 this is the net distance traveled by the particle. 
    9 -2.74e+03 -2.74e+03 -2.74e+03      49.9  0.00437     16.3       446       World muIoni
16.25629763883322 this is the net distance traveled by the particle. 
   10 -2.71e+03 -2.7e+03 -2.7e+03      49.9   0.0144     66.9       513       World muIoni
66.91381590246678 this is the net distance traveled by the particle. 
   11 -2.7e+03 -2.7e+03 -2.7e+03      49.9  0.00176     12.1       525       World muIoni
12.1371857734321 this is the net distance traveled by the particle. 
   12 -2.68e+03 -2.68e+03 -2.68e+03      49.8   0.0064     23.5       549       World muIoni
23.54425870294608 this is the net distance traveled by the particle. 
   13 -2.67e+03 -2.67e+03 -2.67e+03      49.8  0.00359     18.7       568       World muIoni
18.67035431535237 this is the net distance traveled by the particle. 
   14 -2.65e+03 -2.65e+03 -2.65e+03      49.8  0.00658     38.4       606       World muIoni
38.44407659263745 this is the net distance traveled by the particle. 
   15 -2.6e+03 -2.6e+03 -2.6e+03      49.8   0.0165     88.3       694       World muIoni
88.30907074475552 this is the net distance traveled by the particle. 
   16 -2.59e+03 -2.59e+03 -2.59e+03      49.8  0.00217     12.7       707       World muIoni
12.66741563967444 this is the net distance traveled by the particle. 
   17 -2.58e+03 -2.58e+03 -2.58e+03      49.8  0.00373     14.9       722       World muIoni
14.89189813866728 this is the net distance traveled by the particle. 
   18 -2.57e+03 -2.56e+03 -2.57e+03      49.8  0.00733     30.6       753       World muIoni
30.62499318816577 this is the net distance traveled by the particle. 
   19 -2.54e+03 -2.53e+03 -2.53e+03      49.8    0.013     54.3       807       World muIoni
54.34180303651723 this is the net distance traveled by the particle. 
   20 -2.5e+03 -2.49e+03 -2.5e+03      49.8    0.012     65.3       872       World muIoni
65.33559354792311 this is the net distance traveled by the particle. 
   21 -2.48e+03 -2.47e+03 -2.48e+03      49.8  0.00448       36       908       World muIoni
35.97915598342814 this is the net distance traveled by the particle. 
   22 -2.43e+03 -2.43e+03 -2.43e+03      49.7   0.0158     74.3       983       World muIoni
74.31065593701909 this is the net distance traveled by the particle. 
   23 -2.42e+03 -2.42e+03 -2.42e+03      49.7  0.00367     24.1  1.01e+03       World muIoni
24.06891545430189 this is the net distance traveled by the particle. 
   24 -2.37e+03 -2.37e+03 -2.37e+03      49.7   0.0167     81.2  1.09e+03       World muIoni
81.23428393601493 this is the net distance traveled by the particle. 
   25 -2.37e+03 -2.37e+03 -2.37e+03      49.7  0.00174     5.14  1.09e+03       World muIoni
5.138450023697576 this is the net distance traveled by the particle. 
   26 -2.3e+03 -2.3e+03 -2.31e+03      49.7   0.0247      115  1.21e+03       World muIoni
114.7574914832243 this is the net distance traveled by the particle. 
   27 -2.29e+03 -2.28e+03 -2.29e+03      49.6  0.00599     24.4  1.23e+03       World muIoni
24.37784207479476 this is the net distance traveled by the particle. 
   28 -2.28e+03 -2.28e+03 -2.29e+03      49.6  0.00281      9.4  1.24e+03       World muIoni
9.397376428459118 this is the net distance traveled by the particle. 
   29 -2.28e+03 -2.28e+03 -2.29e+03      49.6        0    0.824  1.24e+03       World muIoni
0.8241002761113589 this is the net distance traveled by the particle. 
   30 -2.27e+03 -2.26e+03 -2.27e+03      49.6  0.00508     30.2  1.27e+03       World muIoni
30.16701934547125 this is the net distance traveled by the particle. 
   31 -2.25e+03 -2.24e+03 -2.25e+03      49.6  0.00466     33.1  1.31e+03       World muIoni
33.06118619631081 this is the net distance traveled by the particle. 
   32 -2.24e+03 -2.23e+03 -2.24e+03      49.6   0.0029       13  1.32e+03       World muIoni
13.00570778904051 this is the net distance traveled by the particle. 
   33 -2.22e+03 -2.22e+03 -2.23e+03      49.6  0.00538       26  1.34e+03       World muIoni
25.99913967645936 this is the net distance traveled by the particle. 
   34 -2.15e+03 -2.15e+03 -2.16e+03      49.5   0.0277      127  1.47e+03       World muIoni
126.9315252831972 this is the net distance traveled by the particle. 
   35 -2.15e+03 -2.14e+03 -2.15e+03      49.5 0.000452     2.87  1.47e+03       World muIoni
2.87051531119615 this is the net distance traveled by the particle. 
   36 -2.03e+03 -2.02e+03 -2.04e+03      49.5   0.0491      207  1.68e+03       World muIoni
206.5639369641782 this is the net distance traveled by the particle. 
   37   -2e+03 -1.99e+03 -2.01e+03      49.5   0.0102     54.5  1.74e+03       World muIoni
54.49777118010737 this is the net distance traveled by the particle. 
   38 -1.98e+03 -1.97e+03 -1.99e+03      49.5  0.00584       35  1.77e+03       World muIoni
35.01821215060617 this is the net distance traveled by the particle. 
   39 -1.97e+03 -1.96e+03 -1.98e+03      49.5  0.00326     11.3  1.78e+03       World muIoni
11.27436600720896 this is the net distance traveled by the particle. 
   40 -1.96e+03 -1.95e+03 -1.97e+03      49.5  0.00312     18.5   1.8e+03       World muIoni
18.53981891986626 this is the net distance traveled by the particle. 
   41 -1.92e+03 -1.92e+03 -1.93e+03      49.5   0.0127     62.2  1.86e+03       World muIoni
62.2127106837298 this is the net distance traveled by the particle. 
   42 -1.89e+03 -1.88e+03 -1.9e+03      49.4   0.0117     60.8  1.92e+03       World muIoni
60.7863985296751 this is the net distance traveled by the particle. 
   43 -1.85e+03 -1.84e+03 -1.86e+03      49.4   0.0167       72     2e+03       World muIoni
72.00590340895189 this is the net distance traveled by the particle. 
   44 -1.83e+03 -1.82e+03 -1.84e+03      49.4   0.0108     32.3  2.03e+03       World muIoni
32.32244987791724 this is the net distance traveled by the particle. 
   45 -1.78e+03 -1.77e+03 -1.78e+03      49.4   0.0172     92.7  2.12e+03       World muIoni
92.67620332793878 this is the net distance traveled by the particle. 
   46 -1.74e+03 -1.73e+03 -1.75e+03      49.4   0.0141     57.6  2.18e+03       World muIoni
57.59982826494923 this is the net distance traveled by the particle. 
   47 -1.7e+03 -1.69e+03 -1.71e+03      49.3   0.0187       68  2.25e+03       World muIoni
68.03722938037363 this is the net distance traveled by the particle. 
   48 -1.7e+03 -1.69e+03 -1.71e+03      49.3  0.00208     8.11  2.25e+03       World muIoni
8.107697785070371 this is the net distance traveled by the particle. 
   49 -1.68e+03 -1.67e+03 -1.69e+03      49.3  0.00433       28  2.28e+03       World muIoni
28.00753854370116 this is the net distance traveled by the particle. 
   50 -1.68e+03 -1.67e+03 -1.69e+03      49.3  0.00184     7.61  2.29e+03       World muIoni
7.614607400731398 this is the net distance traveled by the particle. 
   51 -1.67e+03 -1.66e+03 -1.67e+03      49.3  0.00362       20  2.31e+03       World muIoni
20.03502422962351 this is the net distance traveled by the particle. 
   52 -1.63e+03 -1.62e+03 -1.63e+03      49.3   0.0174     70.5  2.38e+03       World muIoni
